#Energy      Li   Mn   O  Total
          0.1000          2.67569735E+01          8.42875163E+03          9.99095283E+01          2.10521301E+01
          0.2000          1.77154302E+01          4.24223838E+03          5.30288068E+01          1.32377803E+01
          0.3000          1.43413483E+01          2.84250504E+03          3.69790175E+01          1.02962631E+01
          0.4000          1.25248261E+01          2.14100307E+03          2.87919304E+01          8.69259448E+00
          0.5000          1.13746895E+01          1.71926913E+03          2.37978108E+01          7.66184877E+00
          0.6000          1.05761812E+01          1.43762215E+03          2.04205860E+01          6.93395345E+00
          0.7000          9.98794236E+00          1.23612808E+03          1.79776664E+01          6.38756126E+00
          0.8000          9.53641874E+00          1.08478835E+03          1.61245816E+01          5.95947133E+00
          0.9000          9.17929232E+00          9.66921090E+02          1.46683493E+01          5.61327665E+00
          1.0000          8.89036506E+00          8.72508279E+02          1.34922860E+01          5.32640572E+00
          2.0000          7.61633421E+00          4.45675252E+02          8.02463851E+00          3.87361553E+00
          3.0000          7.32307862E+00          3.02149201E+02          6.10303368E+00          3.29253714E+00
          4.0000          7.31510675E+00          2.29924156E+02          5.11443804E+00          2.97108333E+00
          5.0000          7.43292494E+00          1.86364511E+02          4.51302991E+00          2.76638186E+00
          6.0000          7.61832318E+00          1.57198733E+02          4.11101825E+00          2.62554990E+00
          7.0000          7.84457115E+00          1.36288763E+02          3.82581508E+00          2.52400157E+00
          8.0000          8.09753651E+00          1.20555974E+02          3.61520295E+00          2.44858645E+00
          9.0000          8.36899273E+00          1.08285180E+02          3.45526702E+00          2.39156180E+00
         10.0000          8.65380290E+00          9.84445987E+01          3.33140648E+00          2.34803710E+00
         11.0000          8.94858281E+00          9.03760608E+01          3.23418224E+00          2.31475273E+00
         12.0000          9.25100664E+00          8.36397981E+01          3.15721023E+00          2.28944177E+00
         13.0000          9.55942027E+00          7.79307102E+01          3.09601169E+00          2.27047248E+00
         14.0000          9.87261350E+00          7.30304314E+01          3.04734797E+00          2.25663637E+00
         15.0000          1.01896796E+01          6.87785218E+01          3.00881678E+00          2.24701682E+00
         16.0000          1.05099253E+01          6.50544333E+01          2.97859707E+00          2.24090429E+00
         17.0000          1.08328112E+01          6.17658220E+01          2.95528234E+00          2.23773985E+00
         18.0000          1.11579111E+01          5.88407457E+01          2.93776829E+00          2.23707652E+00
         19.0000          1.14848837E+01          5.62223174E+01          2.92517542E+00          2.23855199E+00
         20.0000          1.18134527E+01          5.38649575E+01          2.91679422E+00          2.24186920E+00
         21.0000          1.21433915E+01          5.17317141E+01          2.91204580E+00          2.24678199E+00
         22.0000          1.24745131E+01          4.97923103E+01          2.91045301E+00          2.25308449E+00
         23.0000          1.28066613E+01          4.80217005E+01          2.91161885E+00          2.26060309E+00
         24.0000          1.31397051E+01          4.63989858E+01          2.91521033E+00          2.26919029E+00
         25.0000          1.34735335E+01          4.49065881E+01          2.92094590E+00          2.27871990E+00
         26.0000          1.38080520E+01          4.35296152E+01          2.92858593E+00          2.28908329E+00
         27.0000          1.41431797E+01          4.22553659E+01          2.93792511E+00          2.30018645E+00
         28.0000          1.44788468E+01          4.10729406E+01          2.94878648E+00          2.31194759E+00
         29.0000          1.48149929E+01          3.99729322E+01          2.96101672E+00          2.32429518E+00
         30.0000          1.51515656E+01          3.89471790E+01          2.97448229E+00          2.33716647E+00
         31.0000          1.54885189E+01          3.79885646E+01          2.98906634E+00          2.35050610E+00
         32.0000          1.58258127E+01          3.70908559E+01          3.00466616E+00          2.36426513E+00
         33.0000          1.61634114E+01          3.62485693E+01          3.02119110E+00          2.37840010E+00
         34.0000          1.65012840E+01          3.54568618E+01          3.03856088E+00          2.39287233E+00
         35.0000          1.68394025E+01          3.47114397E+01          3.05670408E+00          2.40764727E+00
         36.0000          1.71777425E+01          3.40084826E+01          3.07555703E+00          2.42269396E+00
         37.0000          1.75162818E+01          3.33445802E+01          3.09506270E+00          2.43798466E+00
         38.0000          1.78550010E+01          3.27166781E+01          3.11516993E+00          2.45349436E+00
         39.0000          1.81938823E+01          3.21220332E+01          3.13583264E+00          2.46920055E+00
         40.0000          1.85329100E+01          3.15581742E+01          3.15700925E+00          2.48508289E+00
         41.0000          1.88720699E+01          3.10228692E+01          3.17866211E+00          2.50112295E+00
         42.0000          1.92113491E+01          3.05140973E+01          3.20075710E+00          2.51730404E+00
         43.0000          1.95507360E+01          3.00300239E+01          3.22326315E+00          2.53361101E+00
         44.0000          1.98902201E+01          2.95689800E+01          3.24615199E+00          2.55003007E+00
         45.0000          2.02297919E+01          2.91294438E+01          3.26939777E+00          2.56654868E+00
         46.0000          2.05694427E+01          2.87100249E+01          3.29297686E+00          2.58315540E+00
         47.0000          2.09091647E+01          2.83094500E+01          3.31686759E+00          2.59983979E+00
         48.0000          2.12489505E+01          2.79265514E+01          3.34105006E+00          2.61659233E+00
         49.0000          2.15887938E+01          2.75602558E+01          3.36550596E+00          2.63340428E+00
         50.0000          2.19286884E+01          2.72095751E+01          3.39021842E+00          2.65026768E+00
         51.0000          2.22686290E+01          2.68735981E+01          3.41517186E+00          2.66717522E+00
         52.0000          2.26086104E+01          2.65514831E+01          3.44035189E+00          2.68412020E+00
         52.9990          2.29482880E+01          2.62427544E+01          3.46571970E+00          2.70107951E+00
         53.0000          2.29486280E+01          2.62424516E+01          3.46574519E+00          2.70109650E+00
         53.0010          2.29489680E+01          2.62421489E+01          3.46577069E+00          2.70111349E+00
         54.0000          2.32886777E+01          2.59457822E+01          3.49133940E+00          2.71809847E+00
         54.9990          2.36284153E+01          2.56610848E+01          3.51709718E+00          2.73510392E+00
         55.0000          2.36287554E+01          2.56608054E+01          3.51712305E+00          2.73512096E+00
         55.0010          2.36290955E+01          2.56605261E+01          3.51714893E+00          2.73513799E+00
         56.0000          2.39688577E+01          2.53868995E+01          3.54308549E+00          2.75215921E+00
         57.0000          2.43089813E+01          2.51234857E+01          3.56921678E+00          2.76920889E+00
         57.9990          2.46487828E+01          2.48702738E+01          3.59548133E+00          2.78624892E+00
         58.0000          2.46491230E+01          2.48700251E+01          3.59550770E+00          2.78626598E+00
         58.0010          2.46494631E+01          2.48697764E+01          3.59553407E+00          2.78628304E+00
         59.0000          2.49892801E+01          2.46260149E+01          3.62194961E+00          2.80332682E+00
         60.0000          2.53294500E+01          2.43909857E+01          3.64853446E+00          2.82038804E+00
         61.0000          2.56696303E+01          2.41644984E+01          3.67525472E+00          2.83744653E+00
         62.0000          2.60098188E+01          2.39461423E+01          3.70210335E+00          2.85449947E+00
         63.0000          2.63500134E+01          2.37355324E+01          3.72907374E+00          2.87154423E+00
         64.0000          2.66902122E+01          2.35323077E+01          3.75615970E+00          2.88857843E+00
         65.0000          2.70304136E+01          2.33361290E+01          3.78335541E+00          2.90559987E+00
         66.0000          2.73706158E+01          2.31466778E+01          3.81065543E+00          2.92260655E+00
         67.0000          2.77108174E+01          2.29636543E+01          3.83805462E+00          2.93959661E+00
         68.0000          2.80510170E+01          2.27867763E+01          3.86554813E+00          2.95656839E+00
         69.0000          2.83912132E+01          2.26157778E+01          3.89313143E+00          2.97352033E+00
         70.0000          2.87314049E+01          2.24504078E+01          3.92080022E+00          2.99045105E+00
         71.0000          2.90715910E+01          2.22904295E+01          3.94855046E+00          3.00735924E+00
         72.0000          2.94117704E+01          2.21356191E+01          3.97637832E+00          3.02424376E+00
         73.0000          2.97519422E+01          2.19857648E+01          4.00428019E+00          3.04110354E+00
         74.0000          3.00921055E+01          2.18406665E+01          4.03225266E+00          3.05793763E+00
         75.0000          3.04322594E+01          2.17001344E+01          4.06029250E+00          3.07474515E+00
         76.0000          3.07724033E+01          2.15639888E+01          4.08839665E+00          3.09152533E+00
         77.0000          3.11125363E+01          2.14320591E+01          4.11656222E+00          3.10827747E+00
         78.0000          3.14526579E+01          2.13041837E+01          4.14478646E+00          3.12500092E+00
         79.0000          3.17927674E+01          2.11802088E+01          4.17306676E+00          3.14169514E+00
         80.0000          3.21328643E+01          2.10599883E+01          4.20140066E+00          3.15835962E+00
         81.0000          3.24729479E+01          2.09433834E+01          4.22978580E+00          3.17499393E+00
         82.0000          3.28130180E+01          2.08302620E+01          4.25821995E+00          3.19159768E+00
         83.0000          3.31530739E+01          2.07204982E+01          4.28670099E+00          3.20817053E+00
         84.0000          3.34931153E+01          2.06139721E+01          4.31522691E+00          3.22471221E+00
         85.0000          3.38331418E+01          2.05105696E+01          4.34379579E+00          3.24122245E+00
         86.0000          3.41731530E+01          2.04101816E+01          4.37240579E+00          3.25770108E+00
         87.0000          3.45131487E+01          2.03127040E+01          4.40105517E+00          3.27414790E+00
         88.0000          3.48531285E+01          2.02180377E+01          4.42974227E+00          3.29056281E+00
         88.9990          3.51927521E+01          2.01261784E+01          4.45843678E+00          3.30692933E+00
         89.0000          3.51930920E+01          2.01260878E+01          4.45846552E+00          3.30694569E+00
         89.0010          3.51934320E+01          2.01259972E+01          4.45849426E+00          3.30696206E+00
         90.0000          3.55330392E+01          2.00367635E+01          4.48722339E+00          3.32329649E+00
         91.0000          3.58729697E+01          1.99499782E+01          4.51601445E+00          3.33961515E+00
         92.0000          3.62128833E+01          1.98656488E+01          4.54483733E+00          3.35590168E+00
         93.0000          3.65527799E+01          1.97836960E+01          4.57369069E+00          3.37215606E+00
         94.0000          3.68926592E+01          1.97040437E+01          4.60257329E+00          3.38837835E+00
         95.0000          3.72325211E+01          1.96266191E+01          4.63148393E+00          3.40456858E+00
         96.0000          3.75723654E+01          1.95513522E+01          4.66042146E+00          3.42072684E+00
         97.0000          3.79121920E+01          1.94781762E+01          4.68938477E+00          3.43685321E+00
         98.0000          3.82520008E+01          1.94070266E+01          4.71837281E+00          3.45294778E+00
         99.0000          3.85917917E+01          1.93378419E+01          4.74738458E+00          3.46901070E+00
        100.0000          3.89315645E+01          1.92705628E+01          4.77641910E+00          3.48504208E+00
        110.0000          4.23282869E+01          1.86910822E+01          5.06783013E+00          3.64365859E+00
        120.0000          4.57231633E+01          1.82513536E+01          5.36070205E+00          3.79933522E+00
        130.0000          4.91162090E+01          1.79188117E+01          5.65452747E+00          3.95231006E+00
        140.0000          5.25074696E+01          1.76701731E+01          5.94895648E+00          4.10283074E+00
        150.0000          5.58970061E+01          1.74883550E+01          6.24374292E+00          4.25113504E+00
        160.0000          5.92848860E+01          1.73605450E+01          6.53871092E+00          4.39744210E+00
        170.0000          6.26711788E+01          1.72769492E+01          6.83373333E+00          4.54194930E+00
        180.0000          6.60559527E+01          1.72299559E+01          7.12871742E+00          4.68483207E+00
        190.0000          6.94392739E+01          1.72135629E+01          7.42359522E+00          4.82624508E+00
        200.0000          7.28212051E+01          1.72229754E+01          7.71831682E+00          4.96632416E+00
        210.0000          7.62018054E+01          1.72543190E+01          8.01284563E+00          5.10518830E+00
        220.0000          7.95811306E+01          1.73044306E+01          8.30715501E+00          5.24294175E+00
        230.0000          8.29592326E+01          1.73707036E+01          8.60122580E+00          5.37967591E+00
        240.0000          8.63361600E+01          1.74509715E+01          8.89504453E+00          5.51547099E+00
        250.0000          8.97119583E+01          1.75434203E+01          9.18860205E+00          5.65039759E+00
        260.0000          9.30866697E+01          1.76465198E+01          9.48189251E+00          5.78451795E+00
        270.0000          9.64603338E+01          1.77589714E+01          9.77491264E+00          5.91788715E+00
        280.0000          9.98329876E+01          1.78796661E+01          1.00676611E+01          6.05055402E+00
        290.0000          1.03204665E+02          1.80076518E+01          1.03601381E+01          6.18256204E+00
        300.0000          1.06575400E+02          1.81421069E+01          1.06523450E+01          6.31395000E+00
        310.0000          1.09945221E+02          1.82823192E+01          1.09442840E+01          6.44475268E+00
        320.0000          1.13314157E+02          1.84276685E+01          1.12359580E+01          6.57500132E+00
        330.0000          1.16682235E+02          1.85776124E+01          1.15273704E+01          6.70472408E+00
        340.0000          1.20049480E+02          1.87316750E+01          1.18185251E+01          6.83394645E+00
        350.0000          1.23415915E+02          1.88894371E+01          1.21094261E+01          6.96269155E+00
        360.0000          1.26781563E+02          1.90505282E+01          1.24000776E+01          7.09098046E+00
        370.0000          1.30146445E+02          1.92146200E+01          1.26904840E+01          7.21883239E+00
        380.0000          1.33510579E+02          1.93814202E+01          1.29806498E+01          7.34626499E+00
        390.0000          1.36873986E+02          1.95506687E+01          1.32705795E+01          7.47329443E+00
        400.0000          1.40236683E+02          1.97221326E+01          1.35602775E+01          7.59993565E+00
        410.0000          1.43598686E+02          1.98956034E+01          1.38497482E+01          7.72620244E+00
        420.0000          1.46960011E+02          2.00708936E+01          1.41389962E+01          7.85210757E+00
        430.0000          1.50320674E+02          2.02478348E+01          1.44280257E+01          7.97766293E+00
        440.0000          1.53680688E+02          2.04262746E+01          1.47168410E+01          8.10287957E+00
        450.0000          1.57040068E+02          2.06060756E+01          1.50054463E+01          8.22776781E+00
        460.0000          1.60398827E+02          2.07871133E+01          1.52938458E+01          8.35233734E+00
        470.0000          1.63756976E+02          2.09692746E+01          1.55820434E+01          8.47659720E+00
        480.0000          1.67114527E+02          2.11524569E+01          1.58700430E+01          8.60055592E+00
        490.0000          1.70471493E+02          2.13365668E+01          1.61578485E+01          8.72422152E+00
        500.0000          1.73827882E+02          2.15215191E+01          1.64454636E+01          8.84760159E+00
        510.0000          1.77183707E+02          2.17072360E+01          1.67328919E+01          8.97070328E+00
        520.0000          1.80538976E+02          2.18936464E+01          1.70201370E+01          9.09353337E+00
        530.0000          1.83893699E+02          2.20806853E+01          1.73072023E+01          9.21609830E+00
        537.9990          1.86576755E+02          2.22307100E+01          1.75366987E+01          9.31395123E+00
        538.0010          1.86577426E+02          2.22307476E+01          1.75367560E+01          9.31397567E+00
        540.0000          1.87247885E+02          2.22682932E+01          1.75940912E+01          9.33840419E+00
        550.0000          1.90601543E+02          2.24564151E+01          1.78808068E+01          9.46045685E+00
        560.0000          1.93954681E+02          2.26450011E+01          1.81673523E+01          9.58226184E+00
        570.0000          1.97307306E+02          2.28340047E+01          1.84537309E+01          9.70382444E+00
        580.0000          2.00659427E+02          2.30233836E+01          1.87399454E+01          9.82514973E+00
        590.0000          2.04011050E+02          2.32130984E+01          1.90259988E+01          9.94624254E+00
        600.0000          2.07362184E+02          2.34031132E+01          1.93118939E+01          1.00671075E+01
        610.0000          2.10712834E+02          2.35933946E+01          1.95976335E+01          1.01877491E+01
        620.0000          2.14063007E+02          2.37839117E+01          1.98832201E+01          1.03081716E+01
        630.0000          2.17412710E+02          2.39746361E+01          2.01686564E+01          1.04283791E+01
        640.0000          2.20761948E+02          2.41655415E+01          2.04539449E+01          1.05483755E+01
        644.9990          2.22436060E+02          2.42610352E+01          2.05965060E+01          1.06082838E+01
        645.0010          2.22436730E+02          2.42610734E+01          2.05965630E+01          1.06083077E+01
        650.0000          2.24110728E+02          2.43566034E+01          2.07390881E+01          1.06681647E+01
