#Energy      Li   I  Total
          0.1000          2.23416674E+01          1.73699000E+05          2.23387941E+01
          0.2000          1.47921158E+01          8.69776209E+04          1.47896005E+01
          0.3000          1.19748085E+01          5.80508070E+04          1.19723389E+01
          0.4000          1.04580400E+01          4.35797743E+04          1.04555310E+01
          0.5000          9.49769336E+00          3.48932649E+04          9.49510886E+00
          0.6000          8.83095107E+00          2.90999613E+04          8.82827196E+00
          0.7000          8.33978052E+00          2.49603986E+04          8.33699496E+00
          0.8000          7.96276515E+00          2.18546975E+04          7.95986497E+00
          0.9000          7.66456999E+00          1.94384063E+04          7.66154904E+00
          1.0000          7.42332011E+00          1.75048127E+04          7.42017342E+00
          2.0000          6.35952366E+00          8.79427577E+03          6.35492813E+00
          3.0000          6.11465968E+00          5.88477004E+03          6.10831275E+00
          4.0000          6.10800329E+00          4.42774738E+03          6.09958901E+00
          5.0000          6.20637970E+00          3.55240196E+03          6.19555548E+00
          6.0000          6.36118442E+00          2.96818526E+03          6.34758077E+00
          7.0000          6.55009804E+00          2.55047439E+03          6.53331925E+00
          8.0000          6.76132029E+00          2.23691260E+03          6.74094502E+00
          9.0000          6.98798212E+00          1.99283432E+03          6.96356400E+00
         10.0000          7.22579429E+00          1.79742755E+03          7.19686236E+00
         11.0000          7.47193105E+00          1.63744072E+03          7.43799019E+00
         12.0000          7.72445037E+00          1.50403476E+03          7.68498169E+00
         13.0000          7.98197107E+00          1.39108719E+03          7.93643232E+00
         14.0000          8.24348268E+00          1.29422272E+03          8.19130858E+00
         15.0000          8.50822808E+00          1.21023133E+03          8.44883069E+00
         16.0000          8.77562840E+00          1.13670445E+03          8.70839750E+00
         17.0000          9.04523322E+00          1.07179944E+03          8.96953664E+00
         18.0000          9.31668669E+00          1.01408257E+03          9.23187068E+00
         19.0000          9.58970390E+00          9.62421505E+02          9.49509345E+00
         20.0000          9.86405399E+00          9.15910025E+02          9.75895322E+00
         21.0000          1.01395479E+01          8.73814258E+02          1.00232404E+01
         22.0000          1.04160294E+01          8.35533553E+02          1.02877786E+01
         23.0000          1.06933681E+01          8.00571545E+02          1.05524177E+01
         24.0000          1.09714547E+01          7.68514461E+02          1.08170287E+01
         25.0000          1.12501963E+01          7.39014617E+02          1.10815000E+01
         26.0000          1.15295142E+01          7.11777727E+02          1.13457338E+01
         27.0000          1.18093407E+01          6.86553023E+02          1.16096442E+01
         28.0000          1.20896177E+01          6.63125498E+02          1.18731550E+01
         29.0000          1.23702946E+01          6.41309747E+02          1.21361981E+01
         30.0000          1.26513277E+01          6.20945038E+02          1.23987124E+01
         31.0000          1.29326786E+01          6.01891341E+02          1.26606427E+01
         32.0000          1.32143138E+01          5.84026095E+02          1.29219389E+01
         33.0000          1.34962036E+01          5.67241565E+02          1.31825552E+01
         34.0000          1.37783221E+01          5.51442668E+02          1.34424496E+01
         35.0000          1.40606460E+01          5.36545165E+02          1.37015837E+01
         36.0000          1.43431547E+01          5.22474156E+02          1.39599217E+01
         37.0000          1.46258299E+01          5.09162826E+02          1.42174307E+01
         38.0000          1.49086553E+01          4.96551374E+02          1.44740798E+01
         39.0000          1.51916161E+01          4.84586124E+02          1.47298404E+01
         40.0000          1.54746991E+01          4.73218752E+02          1.49846857E+01
         41.0000          1.57578924E+01          4.62405642E+02          1.52385906E+01
         42.0000          1.60411854E+01          4.52107322E+02          1.54915315E+01
         43.0000          1.63245683E+01          4.42287982E+02          1.57434862E+01
         44.0000          1.66080324E+01          4.32915064E+02          1.59944338E+01
         45.0000          1.68915697E+01          4.23958894E+02          1.62443545E+01
         46.0000          1.71751730E+01          4.15392375E+02          1.64932296E+01
         47.0000          1.74588357E+01          4.07190711E+02          1.67410415E+01
         48.0000          1.77425517E+01          3.99331166E+02          1.69877735E+01
         49.0000          1.80263157E+01          3.91792858E+02          1.72334097E+01
         50.0000          1.83101226E+01          3.84556570E+02          1.74779352E+01
         51.0000          1.85939678E+01          3.77604589E+02          1.77213355E+01
         52.0000          1.88778471E+01          3.70920563E+02          1.79635973E+01
         53.0000          1.91617566E+01          3.64489370E+02          1.82047077E+01
         54.0000          1.94456930E+01          3.58297005E+02          1.84446545E+01
         55.0000          1.97296527E+01          3.52330481E+02          1.86834262E+01
         55.9990          2.00133490E+01          3.46583384E+02          1.89207748E+01
         56.0000          2.00136330E+01          3.46577734E+02          1.89210118E+01
         56.0010          2.00139170E+01          3.46572085E+02          1.89212488E+01
         57.0000          2.02976310E+01          3.41027547E+02          1.91574010E+01
         57.9990          2.05813602E+01          3.35674740E+02          1.93923493E+01
         58.0000          2.05816442E+01          3.35669474E+02          1.93925838E+01
         58.0010          2.05819282E+01          3.35664209E+02          1.93928184E+01
         59.0000          2.08656702E+01          3.30493775E+02          1.96265511E+01
         60.0000          2.11497069E+01          3.25491358E+02          1.98592940E+01
         61.0000          2.14337523E+01          3.20653726E+02          2.00908042E+01
         62.0000          2.17178045E+01          3.15972930E+02          2.03210738E+01
         63.0000          2.20018619E+01          3.11441521E+02          2.05500954E+01
         64.0000          2.22859228E+01          3.07052518E+02          2.07778621E+01
         65.0000          2.25699858E+01          3.02799368E+02          2.10043673E+01
         66.0000          2.28540495E+01          2.98675913E+02          2.12296050E+01
         67.0000          2.31381126E+01          2.94676362E+02          2.14535693E+01
         68.0000          2.34221741E+01          2.90795264E+02          2.16762550E+01
         69.0000          2.37062328E+01          2.87027484E+02          2.18976570E+01
         70.0000          2.39902877E+01          2.83368178E+02          2.21177709E+01
         71.0000          2.42743380E+01          2.79812777E+02          2.23365923E+01
         72.0000          2.45583826E+01          2.76356962E+02          2.25541174E+01
         73.0000          2.48424209E+01          2.72996653E+02          2.27703426E+01
         74.0000          2.51264521E+01          2.69727987E+02          2.29852648E+01
         75.0000          2.54104755E+01          2.66547309E+02          2.31988809E+01
         76.0000          2.56944905E+01          2.63451156E+02          2.34111884E+01
         77.0000          2.59784964E+01          2.60436242E+02          2.36221851E+01
         78.0000          2.62624928E+01          2.57499451E+02          2.38318690E+01
         79.0000          2.65464790E+01          2.54637824E+02          2.40402383E+01
         80.0000          2.68304548E+01          2.51848550E+02          2.42472917E+01
         81.0000          2.71144195E+01          2.49128956E+02          2.44530281E+01
         82.0000          2.73983728E+01          2.46476499E+02          2.46574465E+01
         83.0000          2.76823143E+01          2.43888758E+02          2.48605465E+01
         84.0000          2.79662438E+01          2.41363428E+02          2.50623276E+01
         85.0000          2.82501607E+01          2.38898312E+02          2.52627898E+01
         86.0000          2.85340650E+01          2.36491313E+02          2.54619333E+01
         87.0000          2.88179562E+01          2.34140433E+02          2.56597584E+01
         88.0000          2.91018341E+01          2.31843763E+02          2.58562659E+01
         89.0000          2.93856986E+01          2.29599479E+02          2.60514565E+01
         90.0000          2.96695493E+01          2.27405841E+02          2.62453314E+01
         91.0000          2.99533861E+01          2.25261181E+02          2.64378919E+01
         92.0000          3.02372089E+01          2.23163906E+02          2.66291395E+01
         93.0000          3.05210173E+01          2.21112491E+02          2.68190760E+01
         94.0000          3.08048114E+01          2.19105476E+02          2.70077032E+01
         95.0000          3.10885909E+01          2.17141461E+02          2.71950233E+01
         96.0000          3.13723558E+01          2.15219105E+02          2.73810387E+01
         97.0000          3.16561059E+01          2.13337123E+02          2.75657518E+01
         98.0000          3.19398411E+01          2.11494281E+02          2.77491654E+01
         99.0000          3.22235613E+01          2.09689395E+02          2.79312823E+01
        100.0000          3.25072664E+01          2.07921329E+02          2.81121055E+01
        110.0000          3.53434782E+01          1.92045211E+02          2.98499707E+01
        120.0000          3.81781485E+01          1.78876724E+02          3.14629295E+01
        130.0000          4.10112903E+01          1.67791723E+02          3.29562057E+01
        130.9990          4.12942385E+01          1.66780464E+02          3.30990369E+01
        131.0010          4.12948049E+01          1.66778455E+02          3.30993217E+01
        140.0000          4.38429415E+01          1.58344047E+02          3.43358830E+01
        140.9990          4.41257435E+01          1.57476786E+02          3.44677236E+01
        141.0010          4.41263096E+01          1.57475063E+02          3.44679865E+01
        150.0000          4.66731531E+01          1.50206296E+02          3.56085995E+01
        160.0000          4.95019815E+01          1.43132778E+02          3.67812961E+01
        170.0000          5.23294846E+01          1.36935518E+02          3.78610149E+01
        180.0000          5.51557196E+01          1.31468253E+02          3.88547409E+01
        190.0000          5.79807415E+01          1.26615470E+02          3.97692822E+01
        192.9990          5.88277370E+01          1.25265581E+02          4.00291045E+01
        193.0010          5.88283019E+01          1.25264696E+02          4.00292756E+01
        200.0000          6.08046028E+01          1.22284733E+02          4.06111835E+01
        210.0000          6.36273529E+01          1.18401197E+02          4.13866657E+01
        220.0000          6.64490382E+01          1.14903615E+02          4.21015881E+01
        230.0000          6.92697022E+01          1.11741386E+02          4.27614275E+01
        240.0000          7.20893854E+01          1.08872339E+02          4.33712711E+01
        250.0000          7.49081258E+01          1.06261052E+02          4.39358193E+01
        260.0000          7.77259587E+01          1.03877553E+02          4.44593957E+01
        270.0000          8.05429171E+01          1.01696311E+02          4.49459627E+01
        280.0000          8.33590319E+01          9.96954482E+01          4.53991404E+01
        290.0000          8.61743318E+01          9.78561053E+01          4.58222271E+01
        300.0000          8.89888440E+01          9.61619420E+01          4.62182216E+01
        310.0000          9.18025935E+01          9.45987298E+01          4.65898449E+01
        320.0000          9.46156042E+01          9.31540227E+01          4.69395625E+01
        330.0000          9.74278984E+01          9.18168865E+01          4.72696053E+01
        340.0000          1.00239497E+02          9.05776773E+01          4.75819896E+01
        350.0000          1.03050419E+02          8.94278567E+01          4.78785363E+01
        360.0000          1.05860684E+02          8.83598380E+01          4.81608885E+01
        370.0000          1.08670309E+02          8.73668583E+01          4.84305279E+01
        380.0000          1.11479311E+02          8.64428693E+01          4.86887901E+01
        390.0000          1.14287704E+02          8.55824461E+01          4.89368787E+01
        400.0000          1.17095505E+02          8.47807091E+01          4.91758774E+01
        410.0000          1.19902727E+02          8.40332571E+01          4.94067622E+01
        420.0000          1.22709382E+02          8.33361108E+01          4.96304119E+01
        430.0000          1.25515485E+02          8.26856635E+01          4.98476172E+01
        440.0000          1.28321046E+02          8.20786383E+01          5.00590900E+01
        450.0000          1.31126077E+02          8.15120519E+01          5.02654706E+01
        460.0000          1.33930590E+02          8.09831825E+01          5.04673353E+01
        470.0000          1.36734593E+02          8.04895418E+01          5.06652024E+01
        480.0000          1.39538098E+02          8.00288505E+01          5.08595381E+01
        490.0000          1.42341113E+02          7.95990173E+01          5.10507618E+01
        500.0000          1.45143648E+02          7.91981197E+01          5.12392504E+01
        510.0000          1.47945711E+02          7.88243876E+01          5.14253428E+01
        520.0000          1.50747309E+02          7.84761886E+01          5.16093436E+01
        530.0000          1.53548452E+02          7.81520146E+01          5.17915266E+01
        540.0000          1.56349147E+02          7.78504708E+01          5.19721374E+01
        550.0000          1.59149400E+02          7.75702651E+01          5.21513967E+01
        560.0000          1.61949219E+02          7.73101988E+01          5.23295026E+01
        570.0000          1.64748611E+02          7.70691584E+01          5.25066327E+01
        580.0000          1.67547581E+02          7.68461083E+01          5.26829461E+01
        590.0000          1.70346136E+02          7.66400842E+01          5.28585854E+01
        600.0000          1.73144281E+02          7.64501872E+01          5.30336782E+01
        610.0000          1.75942024E+02          7.62755779E+01          5.32083385E+01
        620.0000          1.78739367E+02          7.61154722E+01          5.33826683E+01
        625.9990          1.80417305E+02          7.60260780E+01          5.34871282E+01
        626.0010          1.80417865E+02          7.60260490E+01          5.34871630E+01
        630.0000          1.81536318E+02          7.59691368E+01          5.35567582E+01
        637.9990          1.83773320E+02          7.58615328E+01          5.36958948E+01
        638.0010          1.83773879E+02          7.58615069E+01          5.36959296E+01
        640.0000          1.84332882E+02          7.58358846E+01          5.37306893E+01
        650.0000          1.87129062E+02          7.57150719E+01          5.39045333E+01
        660.0000          1.89924864E+02          7.56060946E+01          5.40783542E+01
        670.0000          1.92720292E+02          7.55083856E+01          5.42522084E+01
        680.0000          1.95515351E+02          7.54214114E+01          5.44261458E+01
        690.0000          1.98310045E+02          7.53446705E+01          5.46002103E+01
        700.0000          2.01104379E+02          7.52776905E+01          5.47744404E+01
        710.0000          2.03898355E+02          7.52200262E+01          5.49488698E+01
        720.0000          2.06691978E+02          7.51712577E+01          5.51235279E+01
        730.0000          2.09485251E+02          7.51309886E+01          5.52984399E+01
        740.0000          2.12278179E+02          7.50988447E+01          5.54736276E+01
        750.0000          2.15070765E+02          7.50744719E+01          5.56491096E+01
        760.0000          2.17863011E+02          7.50575356E+01          5.58249016E+01
        770.0000          2.20654922E+02          7.50477186E+01          5.60010166E+01
        780.0000          2.23446500E+02          7.50447208E+01          5.61774653E+01
        790.0000          2.26237749E+02          7.50482575E+01          5.63542564E+01
        800.0000          2.29028672E+02          7.50580588E+01          5.65313965E+01
        810.0000          2.31819271E+02          7.50738685E+01          5.67088905E+01
        820.0000          2.34609549E+02          7.50954430E+01          5.68867421E+01
        830.0000          2.37399510E+02          7.51225512E+01          5.70649533E+01
        840.0000          2.40189155E+02          7.51549730E+01          5.72435250E+01
        850.0000          2.42978487E+02          7.51924994E+01          5.74224569E+01
        860.0000          2.45767509E+02          7.52349311E+01          5.76017479E+01
        870.0000          2.48556224E+02          7.52820784E+01          5.77813959E+01
        880.0000          2.51344633E+02          7.53337606E+01          5.79613981E+01
        880.9990          2.51623178E+02          7.53391661E+01          5.79793996E+01
        881.0010          2.51623736E+02          7.53391770E+01          5.79794357E+01
        890.0000          2.54132739E+02          7.53898053E+01          5.81417510E+01
        900.0000          2.56920545E+02          7.54500480E+01          5.83224504E+01
        910.0000          2.59708051E+02          7.55143319E+01          5.85034919E+01
        920.0000          2.62495262E+02          7.55825071E+01          5.86848702E+01
        930.0000          2.65282178E+02          7.56544305E+01          5.88665799E+01
        936.9990          2.67232566E+02          7.57069259E+01          5.89939525E+01
        937.0010          2.67233124E+02          7.57069412E+01          5.89939889E+01
        940.0000          2.68068801E+02          7.57299653E+01          5.90486151E+01
        950.0000          2.70855135E+02          7.58089807E+01          5.92309696E+01
        960.0000          2.73641180E+02          7.58913517E+01          5.94136372E+01
        970.0000          2.76426939E+02          7.59769584E+01          5.95966111E+01
        980.0000          2.79212412E+02          7.60656862E+01          5.97798846E+01
        990.0000          2.81997604E+02          7.61574253E+01          5.99634507E+01
       1000.0000          2.84782514E+02          7.62520706E+01          6.01473024E+01
       1077.9990          3.06495071E+02          7.70794716E+01          6.15903182E+01
       1078.0010          3.06495628E+02          7.70794947E+01          6.15903554E+01
       1100.0000          3.12616512E+02          7.73380747E+01          6.19999354E+01
       1200.0000          3.40424063E+02          7.86256486E+01          6.38732399E+01
       1300.0000          3.68206392E+02          8.00589487E+01          6.57606421E+01
       1400.0000          3.95964505E+02          8.15990102E+01          6.76565748E+01
       1500.0000          4.23699237E+02          8.32179769E+01          6.95565121E+01
