#Energy      Li   Cl  Total
          0.1000          1.38111870E+01          2.40699473E+03          1.37323914E+01
          0.2000          9.14420011E+00          1.22060576E+03          9.07620548E+00
          0.3000          7.40259524E+00          8.22584582E+02          7.33657203E+00
          0.4000          6.46495826E+00          6.22586207E+02          6.39851583E+00
          0.5000          5.87129049E+00          5.02084912E+02          5.80342627E+00
          0.6000          5.45912329E+00          4.21455027E+02          5.38931529E+00
          0.7000          5.15549116E+00          3.63671270E+02          5.08342727E+00
          0.8000          4.92242754E+00          3.20201896E+02          4.84790130E+00
          0.9000          4.73808905E+00          2.86297363E+02          4.66095244E+00
          1.0000          4.58895304E+00          2.59102558E+02          4.50909271E+00
          2.0000          3.93133463E+00          1.35552029E+02          3.82053008E+00
          3.0000          3.77996445E+00          9.36367078E+01          3.63329416E+00
          4.0000          3.77584960E+00          7.24154604E+01          3.58872799E+00
          5.0000          3.83666399E+00          5.95587006E+01          3.60447051E+00
          6.0000          3.93236128E+00          5.09206764E+01          3.65045410E+00
          7.0000          4.04914403E+00          4.47116239E+01          3.71289897E+00
          8.0000          4.17971754E+00          4.00309141E+01          3.78456284E+00
          9.0000          4.31983551E+00          3.63753094E+01          3.86128010E+00
         10.0000          4.46684640E+00          3.34412762E+01          3.94050229E+00
         11.0000          4.61900338E+00          3.10347169E+01          4.02060321E+00
         12.0000          4.77510594E+00          2.90256472E+01          4.10051634E+00
         13.0000          4.93430027E+00          2.73236964E+01          4.17953179E+00
         14.0000          5.09596169E+00          2.58640563E+01          4.25717582E+00
         15.0000          5.25962218E+00          2.45990213E+01          4.33313583E+00
         16.0000          5.42492389E+00          2.34926844E+01          4.40721181E+00
         17.0000          5.59158838E+00          2.25174935E+01          4.47928379E+00
         18.0000          5.75939567E+00          2.16519497E+01          4.54928949E+00
         19.0000          5.92816963E+00          2.08790275E+01          4.61720844E+00
         20.0000          6.09776755E+00          2.01850661E+01          4.68305065E+00
         21.0000          6.26807257E+00          1.95589750E+01          4.74684822E+00
         22.0000          6.43898808E+00          1.89916554E+01          4.80864917E+00
         23.0000          6.61043353E+00          1.84755712E+01          4.86851281E+00
         24.0000          6.78234125E+00          1.80044263E+01          4.92650616E+00
         25.0000          6.95465395E+00          1.75729190E+01          4.98270134E+00
         26.0000          7.12732288E+00          1.71765527E+01          5.03717346E+00
         27.0000          7.30030623E+00          1.68114882E+01          5.08999911E+00
         28.0000          7.47356802E+00          1.64744277E+01          5.14125513E+00
         29.0000          7.64707707E+00          1.61625219E+01          5.19101774E+00
         30.0000          7.82080628E+00          1.58732966E+01          5.23936181E+00
         31.0000          7.99473198E+00          1.56045925E+01          5.28636041E+00
         32.0000          8.16883341E+00          1.53545163E+01          5.33208439E+00
         33.0000          8.34309228E+00          1.51214015E+01          5.37660216E+00
         34.0000          8.51749245E+00          1.49037746E+01          5.41997952E+00
         35.0000          8.69201961E+00          1.47003285E+01          5.46227950E+00
         36.0000          8.86666105E+00          1.45098991E+01          5.50356239E+00
         37.0000          9.04140542E+00          1.43314466E+01          5.54388566E+00
         38.0000          9.21624259E+00          1.41640392E+01          5.58330402E+00
         39.0000          9.39116347E+00          1.40068391E+01          5.62186944E+00
         40.0000          9.56615991E+00          1.38590914E+01          5.65963125E+00
         41.0000          9.74122457E+00          1.37201137E+01          5.69663618E+00
         42.0000          9.91635082E+00          1.35892877E+01          5.73292846E+00
         43.0000          1.00915327E+01          1.34660519E+01          5.76854993E+00
         44.0000          1.02667647E+01          1.33498953E+01          5.80354011E+00
         45.0000          1.04420420E+01          1.32403513E+01          5.83793632E+00
         46.0000          1.06173600E+01          1.31369937E+01          5.87177380E+00
         47.0000          1.07927148E+01          1.30394319E+01          5.90508575E+00
         48.0000          1.09681026E+01          1.29473076E+01          5.93790351E+00
         49.0000          1.11435200E+01          1.28602911E+01          5.97025658E+00
         50.0000          1.13189639E+01          1.27780789E+01          6.00217277E+00
         51.0000          1.14944315E+01          1.27003911E+01          6.03367828E+00
         52.0000          1.16699202E+01          1.26269687E+01          6.06479776E+00
         53.0000          1.18454277E+01          1.25575723E+01          6.09555442E+00
         54.0000          1.20209516E+01          1.24919800E+01          6.12597013E+00
         55.0000          1.21964901E+01          1.24299856E+01          6.15606544E+00
         56.0000          1.23720412E+01          1.23713977E+01          6.18585971E+00
         57.0000          1.25476032E+01          1.23160380E+01          6.21537115E+00
         57.9990          1.27229991E+01          1.22637913E+01          6.24458778E+00
         58.0000          1.27231747E+01          1.22637405E+01          6.24461690E+00
         58.0010          1.27233503E+01          1.22636897E+01          6.24464601E+00
         59.0000          1.28987541E+01          1.22143501E+01          6.27361306E+00
         60.0000          1.30743401E+01          1.21677221E+01          6.30237482E+00
         61.0000          1.32499315E+01          1.21237212E+01          6.33091644E+00
         62.0000          1.34255271E+01          1.20822204E+01          6.35925134E+00
         63.0000          1.36011258E+01          1.20431012E+01          6.38739216E+00
         64.0000          1.37767268E+01          1.20062519E+01          6.41535078E+00
         65.0000          1.39523290E+01          1.19715680E+01          6.44313837E+00
         66.0000          1.41279317E+01          1.19389509E+01          6.47076545E+00
         67.0000          1.43035341E+01          1.19083083E+01          6.49824193E+00
         68.0000          1.44791354E+01          1.18795527E+01          6.52557712E+00
         69.0000          1.46547350E+01          1.18526020E+01          6.55277977E+00
         70.0000          1.48303323E+01          1.18273787E+01          6.57985813E+00
         71.0000          1.50059266E+01          1.18038096E+01          6.60681997E+00
         72.0000          1.51815176E+01          1.17818254E+01          6.63367259E+00
         73.0000          1.53571045E+01          1.17613607E+01          6.66042285E+00
         74.0000          1.55326871E+01          1.17423535E+01          6.68707722E+00
         75.0000          1.57082649E+01          1.17247452E+01          6.71364180E+00
         76.0000          1.58838375E+01          1.17084801E+01          6.74012231E+00
         77.0000          1.60594044E+01          1.16935056E+01          6.76652414E+00
         78.0000          1.62349655E+01          1.16797715E+01          6.79285238E+00
         79.0000          1.64105203E+01          1.16672303E+01          6.81911179E+00
         80.0000          1.65860686E+01          1.16558368E+01          6.84530688E+00
         81.0000          1.67616101E+01          1.16455481E+01          6.87144188E+00
         82.0000          1.69371446E+01          1.16363231E+01          6.89752077E+00
         83.0000          1.71126718E+01          1.16281230E+01          6.92354731E+00
         84.0000          1.72881915E+01          1.16209107E+01          6.94952503E+00
         85.0000          1.74637034E+01          1.16146507E+01          6.97545724E+00
         86.0000          1.76392076E+01          1.16093095E+01          7.00134708E+00
         87.0000          1.78147036E+01          1.16048546E+01          7.02719749E+00
         88.0000          1.79901915E+01          1.16012555E+01          7.05301123E+00
         89.0000          1.81656710E+01          1.15984827E+01          7.07879093E+00
         90.0000          1.83411420E+01          1.15965082E+01          7.10453903E+00
         91.0000          1.85166045E+01          1.15953052E+01          7.13025783E+00
         92.0000          1.86920582E+01          1.15948478E+01          7.15594951E+00
         93.0000          1.88675031E+01          1.15951117E+01          7.18161612E+00
         94.0000          1.90429391E+01          1.15960731E+01          7.20725957E+00
         95.0000          1.92183661E+01          1.15977096E+01          7.23288167E+00
         96.0000          1.93937841E+01          1.15999995E+01          7.25848412E+00
         97.0000          1.95691929E+01          1.16029221E+01          7.28406851E+00
         98.0000          1.97445925E+01          1.16064576E+01          7.30963635E+00
         99.0000          1.99199829E+01          1.16105867E+01          7.33518905E+00
        100.0000          2.00953639E+01          1.16152913E+01          7.36072794E+00
        110.0000          2.18486552E+01          1.16904267E+01          7.61559612E+00
        120.0000          2.36009936E+01          1.18073906E+01          7.87006117E+00
        130.0000          2.53523871E+01          1.19561289E+01          8.12459033E+00
        140.0000          2.71028592E+01          1.21294695E+01          8.37939819E+00
        150.0000          2.88524413E+01          1.23221652E+01          8.63455847E+00
        160.0000          3.06011684E+01          1.25302938E+01          8.89006798E+00
        170.0000          3.23490762E+01          1.27508693E+01          9.14588340E+00
        180.0000          3.40962000E+01          1.29815812E+01          9.40194245E+00
        190.0000          3.58425739E+01          1.32206168E+01          9.65817606E+00
        200.0000          3.75882304E+01          1.34665357E+01          9.91451506E+00
        205.9990          3.86351182E+01          1.36168750E+01          1.00683159E+01
        206.0010          3.86354672E+01          1.36169255E+01          1.00683672E+01
        207.9990          3.89840851E+01          1.36674166E+01          1.01195923E+01
        208.0010          3.89844341E+01          1.36674672E+01          1.01196436E+01
        210.0000          3.93332000E+01          1.37181814E+01          1.01708939E+01
        220.0000          4.10775113E+01          1.39746155E+01          1.04272525E+01
        230.0000          4.28211913E+01          1.42350701E+01          1.06835366E+01
        240.0000          4.45642650E+01          1.44989119E+01          1.09396986E+01
        250.0000          4.63067558E+01          1.47656146E+01          1.11956963E+01
        260.0000          4.80486856E+01          1.50347384E+01          1.14514935E+01
        270.0000          4.97900749E+01          1.53059129E+01          1.17070587E+01
        276.9990          5.10085619E+01          1.54967583E+01          1.18857763E+01
        277.0010          5.10089100E+01          1.54968130E+01          1.18858273E+01
        280.0000          5.15309426E+01          1.55788252E+01          1.19623651E+01
        290.0000          5.32713066E+01          1.58532091E+01          1.22173900E+01
        300.0000          5.50111836E+01          1.61288377E+01          1.24721139E+01
        310.0000          5.67505893E+01          1.64055160E+01          1.27265209E+01
        320.0000          5.84895381E+01          1.66830766E+01          1.29805974E+01
        330.0000          6.02280440E+01          1.69613748E+01          1.32343324E+01
        340.0000          6.19661198E+01          1.72402853E+01          1.34877171E+01
        350.0000          6.37037778E+01          1.75196993E+01          1.37407443E+01
        360.0000          6.54410293E+01          1.77995219E+01          1.39934084E+01
        370.0000          6.71778851E+01          1.80796704E+01          1.42457054E+01
        380.0000          6.89143556E+01          1.83600724E+01          1.44976322E+01
        390.0000          7.06504503E+01          1.86406645E+01          1.47491869E+01
        400.0000          7.23861784E+01          1.89213910E+01          1.50003685E+01
        410.0000          7.41215485E+01          1.92022029E+01          1.52511766E+01
        420.0000          7.58565689E+01          1.94830572E+01          1.55016118E+01
        430.0000          7.75912472E+01          1.97639157E+01          1.57516749E+01
        440.0000          7.93255910E+01          2.00447451E+01          1.60013674E+01
        450.0000          8.10596071E+01          2.03255158E+01          1.62506912E+01
        460.0000          8.27933024E+01          2.06062016E+01          1.64996486E+01
        470.0000          8.45266833E+01          2.08867795E+01          1.67482421E+01
        480.0000          8.62597557E+01          2.11672292E+01          1.69964746E+01
        490.0000          8.79925255E+01          2.14475326E+01          1.72443490E+01
        500.0000          8.97249983E+01          2.17276739E+01          1.74918687E+01
        510.0000          9.14571792E+01          2.20076392E+01          1.77390369E+01
        520.0000          9.31890735E+01          2.22874160E+01          1.79858572E+01
        530.0000          9.49206860E+01          2.25669937E+01          1.82323332E+01
        540.0000          9.66520212E+01          2.28463626E+01          1.84784685E+01
        550.0000          9.83830837E+01          2.31255146E+01          1.87242670E+01
        560.0000          1.00113878E+02          2.34044422E+01          1.89697323E+01
        570.0000          1.01844407E+02          2.36831393E+01          1.92148684E+01
        580.0000          1.03574677E+02          2.39616004E+01          1.94596790E+01
        590.0000          1.05304689E+02          2.42398207E+01          1.97041680E+01
        600.0000          1.07034449E+02          2.45177963E+01          1.99483392E+01
        610.0000          1.08763959E+02          2.47955237E+01          2.01921965E+01
        620.0000          1.10493223E+02          2.50730002E+01          2.04357438E+01
        630.0000          1.12222244E+02          2.53502232E+01          2.06789846E+01
        640.0000          1.13951025E+02          2.56271910E+01          2.09219230E+01
        650.0000          1.15679570E+02          2.59039021E+01          2.11645626E+01
        660.0000          1.17407881E+02          2.61803552E+01          2.14069070E+01
        670.0000          1.19135960E+02          2.64565495E+01          2.16489601E+01
        680.0000          1.20863812E+02          2.67324845E+01          2.18907253E+01
        690.0000          1.22591438E+02          2.70081599E+01          2.21322063E+01
        700.0000          1.24318841E+02          2.72835757E+01          2.23734066E+01
        710.0000          1.26046023E+02          2.75587321E+01          2.26143297E+01
        720.0000          1.27772986E+02          2.78336294E+01          2.28549791E+01
        730.0000          1.29499734E+02          2.81082681E+01          2.30953581E+01
        740.0000          1.31226268E+02          2.83826489E+01          2.33354700E+01
        750.0000          1.32952591E+02          2.86567727E+01          2.35753183E+01
        760.0000          1.34678703E+02          2.89306405E+01          2.38149060E+01
        770.0000          1.36404609E+02          2.92042531E+01          2.40542364E+01
        780.0000          1.38130309E+02          2.94776119E+01          2.42933127E+01
        790.0000          1.39855805E+02          2.97507180E+01          2.45321379E+01
        800.0000          1.41581099E+02          3.00235728E+01          2.47707151E+01
        810.0000          1.43306193E+02          3.02961777E+01          2.50090472E+01
        820.0000          1.45031090E+02          3.05685340E+01          2.52471372E+01
        830.0000          1.46755789E+02          3.08406434E+01          2.54849881E+01
        840.0000          1.48480294E+02          3.11125074E+01          2.57226025E+01
        850.0000          1.50204605E+02          3.13841275E+01          2.59599834E+01
        860.0000          1.51928725E+02          3.16555054E+01          2.61971334E+01
        870.0000          1.53652654E+02          3.19266427E+01          2.64340553E+01
        880.0000          1.55376395E+02          3.21975412E+01          2.66707517E+01
        890.0000          1.57099948E+02          3.24682024E+01          2.69072252E+01
        900.0000          1.58823316E+02          3.27386283E+01          2.71434784E+01
        910.0000          1.60546499E+02          3.30088204E+01          2.73795138E+01
        920.0000          1.62269498E+02          3.32787805E+01          2.76153339E+01
        930.0000          1.63992316E+02          3.35485104E+01          2.78509411E+01
        940.0000          1.65714953E+02          3.38180119E+01          2.80863378E+01
        950.0000          1.67437410E+02          3.40872867E+01          2.83215263E+01
        960.0000          1.69159689E+02          3.43563366E+01          2.85565090E+01
        970.0000          1.70881792E+02          3.46251633E+01          2.87912881E+01
        980.0000          1.72603718E+02          3.48937686E+01          2.90258658E+01
        990.0000          1.74325469E+02          3.51621543E+01          2.92602443E+01
       1000.0000          1.76047047E+02          3.54303222E+01          2.94944259E+01
       1100.0000          1.93253486E+02          3.81003986E+01          3.18258535E+01
       1200.0000          2.10443577E+02          4.07505457E+01          3.41396945E+01
       1300.0000          2.27618076E+02          4.33823186E+01          3.64375850E+01
       1400.0000          2.44777605E+02          4.59971184E+01          3.87209189E+01
       1500.0000          2.61922680E+02          4.85961961E+01          4.09908927E+01
       1600.0000          2.79053738E+02          5.11806650E+01          4.32485403E+01
       1700.0000          2.96171149E+02          5.37515160E+01          4.54947617E+01
       1800.0000          3.13275235E+02          5.63096320E+01          4.77303450E+01
       1900.0000          3.30366272E+02          5.88558025E+01          4.99559849E+01
       2000.0000          3.47444507E+02          6.13907348E+01          5.21722968E+01
       2100.0000          3.64510154E+02          6.39150650E+01          5.43798291E+01
       2200.0000          3.81563404E+02          6.64293673E+01          5.65790726E+01
       2300.0000          3.98604430E+02          6.89341611E+01          5.87704684E+01
       2400.0000          4.15633385E+02          7.14299183E+01          6.09544150E+01
       2500.0000          4.32650408E+02          7.39170687E+01          6.31312736E+01
       2600.0000          4.49655626E+02          7.63960051E+01          6.53013725E+01
       2700.0000          4.66649154E+02          7.88670871E+01          6.74650115E+01
